Angle,x,y,z
0,339.507,0.000,339.507
1,339.455,5.925,339.507
2,339.300,11.849,339.507
3,339.041,17.768,339.507
4,338.680,23.683,339.507
5,338.215,29.590,339.507
6,337.647,35.488,339.507
7,336.976,41.375,339.507
8,336.203,47.250,339.507
9,335.327,53.111,339.507
10,334.349,58.955,339.507
11,333.269,64.781,339.507
12,332.088,70.587,339.507
13,330.805,76.372,339.507
14,329.422,82.134,339.507
15,327.938,87.871,339.507
16,326.355,93.581,339.507
17,324.672,99.262,339.507
18,322.890,104.913,339.507
19,321.010,110.533,339.507
20,319.032,116.118,339.507
21,316.957,121.668,339.507
22,314.785,127.181,339.507
23,312.517,132.656,339.507
24,310.155,138.090,339.507
25,307.697,143.482,339.507
26,305.147,148.830,339.507
27,302.503,154.133,339.507
28,299.767,159.389,339.507
29,296.939,164.596,339.507
30,294.021,169.753,339.507
31,291.014,174.859,339.507
32,287.918,179.911,339.507
33,284.734,184.909,339.507
34,281.464,189.850,339.507
35,278.108,194.733,339.507
36,274.667,199.557,339.507
37,271.142,204.320,339.507
38,267.535,209.021,339.507
39,263.846,213.658,339.507
40,260.077,218.231,339.507
41,256.229,222.736,339.507
42,252.303,227.174,339.507
43,248.299,231.543,339.507
44,244.221,235.841,339.507
45,240.067,240.067,339.507
46,235.841,244.221,339.507
47,231.543,248.299,339.507
48,227.174,252.303,339.507
49,222.736,256.229,339.507
50,218.231,260.077,339.507
51,213.658,263.846,339.507
52,209.021,267.535,339.507
53,204.320,271.142,339.507
54,199.557,274.667,339.507
55,194.733,278.108,339.507
56,189.850,281.464,339.507
57,184.909,284.734,339.507
58,179.911,287.918,339.507
59,174.859,291.014,339.507
60,169.753,294.021,339.507
61,164.596,296.939,339.507
62,159.389,299.767,339.507
63,154.133,302.503,339.507
64,148.830,305.147,339.507
65,143.482,307.697,339.507
66,138.090,310.155,339.507
67,132.656,312.517,339.507
68,127.181,314.785,339.507
69,121.668,316.957,339.507
70,116.118,319.032,339.507
71,110.533,321.010,339.507
72,104.913,322.890,339.507
73,99.262,324.672,339.507
74,93.581,326.355,339.507
75,87.871,327.938,339.507
76,82.134,329.422,339.507
77,76.372,330.805,339.507
78,70.587,332.088,339.507
79,64.781,333.269,339.507
80,58.955,334.349,339.507
81,53.111,335.327,339.507
82,47.250,336.203,339.507
83,41.375,336.976,339.507
84,35.488,337.647,339.507
85,29.590,338.215,339.507
86,23.683,338.680,339.507
87,17.768,339.041,339.507
88,11.849,339.300,339.507
89,5.925,339.455,339.507
90,0.000,339.507,339.507
91,-5.925,339.455,339.507
92,-11.849,339.300,339.507
93,-17.768,339.041,339.507
94,-23.683,338.680,339.507
95,-29.590,338.215,339.507
96,-35.488,337.647,339.507
97,-41.375,336.976,339.507
98,-47.250,336.203,339.507
99,-53.111,335.327,339.507
100,-58.955,334.349,339.507
101,-64.781,333.269,339.507
102,-70.587,332.088,339.507
103,-76.372,330.805,339.507
104,-82.134,329.422,339.507
105,-87.871,327.938,339.507
106,-93.581,326.355,339.507
107,-99.262,324.672,339.507
108,-104.913,322.890,339.507
109,-110.533,321.010,339.507
110,-116.118,319.032,339.507
111,-121.668,316.957,339.507
112,-127.181,314.785,339.507
113,-132.656,312.517,339.507
114,-138.090,310.155,339.507
115,-143.482,307.697,339.507
116,-148.830,305.147,339.507
117,-154.133,302.503,339.507
118,-159.389,299.767,339.507
119,-164.596,296.939,339.507
120,-169.753,294.021,339.507
121,-174.859,291.014,339.507
122,-179.911,287.918,339.507
123,-184.909,284.734,339.507
124,-189.850,281.464,339.507
125,-194.733,278.108,339.507
126,-199.557,274.667,339.507
127,-204.320,271.142,339.507
128,-209.021,267.535,339.507
129,-213.658,263.846,339.507
130,-218.231,260.077,339.507
131,-222.736,256.229,339.507
132,-227.174,252.303,339.507
133,-231.543,248.299,339.507
134,-235.841,244.221,339.507
135,-240.067,240.067,339.507
136,-244.221,235.841,339.507
137,-248.299,231.543,339.507
138,-252.303,227.174,339.507
139,-256.229,222.736,339.507
140,-260.077,218.231,339.507
141,-263.846,213.658,339.507
142,-267.535,209.021,339.507
143,-271.142,204.320,339.507
144,-274.667,199.557,339.507
145,-278.108,194.733,339.507
146,-281.464,189.850,339.507
147,-284.734,184.909,339.507
148,-287.918,179.911,339.507
149,-291.014,174.859,339.507
150,-294.021,169.753,339.507
151,-296.939,164.596,339.507
152,-299.767,159.389,339.507
153,-302.503,154.133,339.507
154,-305.147,148.830,339.507
155,-307.697,143.482,339.507
156,-310.155,138.090,339.507
157,-312.517,132.656,339.507
158,-314.785,127.181,339.507
159,-316.957,121.668,339.507
160,-319.032,116.118,339.507
161,-321.010,110.533,339.507
162,-322.890,104.913,339.507
163,-324.672,99.262,339.507
164,-326.355,93.581,339.507
165,-327.938,87.871,339.507
166,-329.422,82.134,339.507
167,-330.805,76.372,339.507
168,-332.088,70.587,339.507
169,-333.269,64.781,339.507
170,-334.349,58.955,339.507
171,-335.327,53.111,339.507
172,-336.203,47.250,339.507
173,-336.976,41.375,339.507
174,-337.647,35.488,339.507
175,-338.215,29.590,339.507
176,-338.680,23.683,339.507
177,-339.041,17.768,339.507
178,-339.300,11.849,339.507
179,-339.455,5.925,339.507
180,-339.507,0.000,339.507
181,-339.455,-5.925,339.507
182,-339.300,-11.849,339.507
183,-339.041,-17.768,339.507
184,-338.680,-23.683,339.507
185,-338.215,-29.590,339.507
186,-337.647,-35.488,339.507
187,-336.976,-41.375,339.507
188,-336.203,-47.250,339.507
189,-335.327,-53.111,339.507
190,-334.349,-58.955,339.507
191,-333.269,-64.781,339.507
192,-332.088,-70.587,339.507
193,-330.805,-76.372,339.507
194,-329.422,-82.134,339.507
195,-327.938,-87.871,339.507
196,-326.355,-93.581,339.507
197,-324.672,-99.262,339.507
198,-322.890,-104.913,339.507
199,-321.010,-110.533,339.507
200,-319.032,-116.118,339.507
201,-316.957,-121.668,339.507
202,-314.785,-127.181,339.507
203,-312.517,-132.656,339.507
204,-310.155,-138.090,339.507
205,-307.697,-143.482,339.507
206,-305.147,-148.830,339.507
207,-302.503,-154.133,339.507
208,-299.767,-159.389,339.507
209,-296.939,-164.596,339.507
210,-294.021,-169.753,339.507
211,-291.014,-174.859,339.507
212,-287.918,-179.911,339.507
213,-284.734,-184.909,339.507
214,-281.464,-189.850,339.507
215,-278.108,-194.733,339.507
216,-274.667,-199.557,339.507
217,-271.142,-204.320,339.507
218,-267.535,-209.021,339.507
219,-263.846,-213.658,339.507
220,-260.077,-218.231,339.507
221,-256.229,-222.736,339.507
222,-252.303,-227.174,339.507
223,-248.299,-231.543,339.507
224,-244.221,-235.841,339.507
225,-240.067,-240.067,339.507
226,-235.841,-244.221,339.507
227,-231.543,-248.299,339.507
228,-227.174,-252.303,339.507
229,-222.736,-256.229,339.507
230,-218.231,-260.077,339.507
231,-213.658,-263.846,339.507
232,-209.021,-267.535,339.507
233,-204.320,-271.142,339.507
234,-199.557,-274.667,339.507
235,-194.733,-278.108,339.507
236,-189.850,-281.464,339.507
237,-184.909,-284.734,339.507
238,-179.911,-287.918,339.507
239,-174.859,-291.014,339.507
240,-169.753,-294.021,339.507
241,-164.596,-296.939,339.507
242,-159.389,-299.767,339.507
243,-154.133,-302.503,339.507
244,-148.830,-305.147,339.507
245,-143.482,-307.697,339.507
246,-138.090,-310.155,339.507
247,-132.656,-312.517,339.507
248,-127.181,-314.785,339.507
249,-121.668,-316.957,339.507
250,-116.118,-319.032,339.507
251,-110.533,-321.010,339.507
252,-104.913,-322.890,339.507
253,-99.262,-324.672,339.507
254,-93.581,-326.355,339.507
255,-87.871,-327.938,339.507
256,-82.134,-329.422,339.507
257,-76.372,-330.805,339.507
258,-70.587,-332.088,339.507
259,-64.781,-333.269,339.507
260,-58.955,-334.349,339.507
261,-53.111,-335.327,339.507
262,-47.250,-336.203,339.507
263,-41.375,-336.976,339.507
264,-35.488,-337.647,339.507
265,-29.590,-338.215,339.507
266,-23.683,-338.680,339.507
267,-17.768,-339.041,339.507
268,-11.849,-339.300,339.507
269,-5.925,-339.455,339.507
270,0.000,-339.507,339.507
271,5.925,-339.455,339.507
272,11.849,-339.300,339.507
273,17.768,-339.041,339.507
274,23.683,-338.680,339.507
275,29.590,-338.215,339.507
276,35.488,-337.647,339.507
277,41.375,-336.976,339.507
278,47.250,-336.203,339.507
279,53.111,-335.327,339.507
280,58.955,-334.349,339.507
281,64.781,-333.269,339.507
282,70.587,-332.088,339.507
283,76.372,-330.805,339.507
284,82.134,-329.422,339.507
285,87.871,-327.938,339.507
286,93.581,-326.355,339.507
287,99.262,-324.672,339.507
288,104.913,-322.890,339.507
289,110.533,-321.010,339.507
290,116.118,-319.032,339.507
291,121.668,-316.957,339.507
292,127.181,-314.785,339.507
293,132.656,-312.517,339.507
294,138.090,-310.155,339.507
295,143.482,-307.697,339.507
296,148.830,-305.147,339.507
297,154.133,-302.503,339.507
298,159.389,-299.767,339.507
299,164.596,-296.939,339.507
300,169.753,-294.021,339.507
301,174.859,-291.014,339.507
302,179.911,-287.918,339.507
303,184.909,-284.734,339.507
304,189.850,-281.464,339.507
305,194.733,-278.108,339.507
306,199.557,-274.667,339.507
307,204.320,-271.142,339.507
308,209.021,-267.535,339.507
309,213.658,-263.846,339.507
310,218.231,-260.077,339.507
311,222.736,-256.229,339.507
312,227.174,-252.303,339.507
313,231.543,-248.299,339.507
314,235.841,-244.221,339.507
315,240.067,-240.067,339.507
316,244.221,-235.841,339.507
317,248.299,-231.543,339.507
318,252.303,-227.174,339.507
319,256.229,-222.736,339.507
320,260.077,-218.231,339.507
321,263.846,-213.658,339.507
322,267.535,-209.021,339.507
323,271.142,-204.320,339.507
324,274.667,-199.557,339.507
325,278.108,-194.733,339.507
326,281.464,-189.850,339.507
327,284.734,-184.909,339.507
328,287.918,-179.911,339.507
329,291.014,-174.859,339.507
330,294.021,-169.753,339.507
331,296.939,-164.596,339.507
332,299.767,-159.389,339.507
333,302.503,-154.133,339.507
334,305.147,-148.830,339.507
335,307.697,-143.482,339.507
336,310.155,-138.090,339.507
337,312.517,-132.656,339.507
338,314.785,-127.181,339.507
339,316.957,-121.668,339.507
340,319.032,-116.118,339.507
341,321.010,-110.533,339.507
342,322.890,-104.913,339.507
343,324.672,-99.262,339.507
344,326.355,-93.581,339.507
345,327.938,-87.871,339.507
346,329.422,-82.134,339.507
347,330.805,-76.372,339.507
348,332.088,-70.587,339.507
349,333.269,-64.781,339.507
350,334.349,-58.955,339.507
351,335.327,-53.111,339.507
352,336.203,-47.250,339.507
353,336.976,-41.375,339.507
354,337.647,-35.488,339.507
355,338.215,-29.590,339.507
356,338.680,-23.683,339.507
357,339.041,-17.768,339.507
358,339.300,-11.849,339.507
359,339.455,-5.925,339.507
