Angle,x,y,z
0,344.742,0.000,344.742
1,344.690,6.017,344.742
2,344.532,12.031,344.742
3,344.270,18.042,344.742
4,343.902,24.048,344.742
5,343.430,30.046,344.742
6,342.854,36.035,344.742
7,342.172,42.013,344.742
8,341.387,47.979,344.742
9,340.498,53.930,344.742
10,339.505,59.864,344.742
11,338.408,65.780,344.742
12,337.209,71.676,344.742
13,335.906,77.550,344.742
14,334.502,83.401,344.742
15,332.995,89.226,344.742
16,331.387,95.024,344.742
17,329.678,100.793,344.742
18,327.869,106.531,344.742
19,325.960,112.237,344.742
20,323.952,117.909,344.742
21,321.844,123.544,344.742
22,319.639,129.143,344.742
23,317.337,134.701,344.742
24,314.938,140.219,344.742
25,312.442,145.694,344.742
26,309.852,151.125,344.742
27,307.167,156.510,344.742
28,304.389,161.847,344.742
29,301.518,167.134,344.742
30,298.555,172.371,344.742
31,295.502,177.555,344.742
32,292.358,182.685,344.742
33,289.125,187.760,344.742
34,285.804,192.777,344.742
35,282.396,197.736,344.742
36,278.902,202.634,344.742
37,275.323,207.471,344.742
38,271.660,212.244,344.742
39,267.915,216.953,344.742
40,264.088,221.596,344.742
41,260.180,226.171,344.742
42,256.193,230.677,344.742
43,252.128,235.114,344.742
44,247.987,239.478,344.742
45,243.769,243.769,344.742
46,239.478,247.987,344.742
47,235.114,252.128,344.742
48,230.677,256.193,344.742
49,226.171,260.180,344.742
50,221.596,264.088,344.742
51,216.953,267.915,344.742
52,212.244,271.660,344.742
53,207.471,275.323,344.742
54,202.634,278.902,344.742
55,197.736,282.396,344.742
56,192.777,285.804,344.742
57,187.760,289.125,344.742
58,182.685,292.358,344.742
59,177.555,295.502,344.742
60,172.371,298.555,344.742
61,167.134,301.518,344.742
62,161.847,304.389,344.742
63,156.510,307.167,344.742
64,151.125,309.852,344.742
65,145.694,312.442,344.742
66,140.219,314.938,344.742
67,134.701,317.337,344.742
68,129.143,319.639,344.742
69,123.544,321.844,344.742
70,117.909,323.952,344.742
71,112.237,325.960,344.742
72,106.531,327.869,344.742
73,100.793,329.678,344.742
74,95.024,331.387,344.742
75,89.226,332.995,344.742
76,83.401,334.502,344.742
77,77.550,335.906,344.742
78,71.676,337.209,344.742
79,65.780,338.408,344.742
80,59.864,339.505,344.742
81,53.930,340.498,344.742
82,47.979,341.387,344.742
83,42.013,342.172,344.742
84,36.035,342.854,344.742
85,30.046,343.430,344.742
86,24.048,343.902,344.742
87,18.042,344.270,344.742
88,12.031,344.532,344.742
89,6.017,344.690,344.742
90,0.000,344.742,344.742
91,-6.017,344.690,344.742
92,-12.031,344.532,344.742
93,-18.042,344.270,344.742
94,-24.048,343.902,344.742
95,-30.046,343.430,344.742
96,-36.035,342.854,344.742
97,-42.013,342.172,344.742
98,-47.979,341.387,344.742
99,-53.930,340.498,344.742
100,-59.864,339.505,344.742
101,-65.780,338.408,344.742
102,-71.676,337.209,344.742
103,-77.550,335.906,344.742
104,-83.401,334.502,344.742
105,-89.226,332.995,344.742
106,-95.024,331.387,344.742
107,-100.793,329.678,344.742
108,-106.531,327.869,344.742
109,-112.237,325.960,344.742
110,-117.909,323.952,344.742
111,-123.544,321.844,344.742
112,-129.143,319.639,344.742
113,-134.701,317.337,344.742
114,-140.219,314.938,344.742
115,-145.694,312.442,344.742
116,-151.125,309.852,344.742
117,-156.510,307.167,344.742
118,-161.847,304.389,344.742
119,-167.134,301.518,344.742
120,-172.371,298.555,344.742
121,-177.555,295.502,344.742
122,-182.685,292.358,344.742
123,-187.760,289.125,344.742
124,-192.777,285.804,344.742
125,-197.736,282.396,344.742
126,-202.634,278.902,344.742
127,-207.471,275.323,344.742
128,-212.244,271.660,344.742
129,-216.953,267.915,344.742
130,-221.596,264.088,344.742
131,-226.171,260.180,344.742
132,-230.677,256.193,344.742
133,-235.114,252.128,344.742
134,-239.478,247.987,344.742
135,-243.769,243.769,344.742
136,-247.987,239.478,344.742
137,-252.128,235.114,344.742
138,-256.193,230.677,344.742
139,-260.180,226.171,344.742
140,-264.088,221.596,344.742
141,-267.915,216.953,344.742
142,-271.660,212.244,344.742
143,-275.323,207.471,344.742
144,-278.902,202.634,344.742
145,-282.396,197.736,344.742
146,-285.804,192.777,344.742
147,-289.125,187.760,344.742
148,-292.358,182.685,344.742
149,-295.502,177.555,344.742
150,-298.555,172.371,344.742
151,-301.518,167.134,344.742
152,-304.389,161.847,344.742
153,-307.167,156.510,344.742
154,-309.852,151.125,344.742
155,-312.442,145.694,344.742
156,-314.938,140.219,344.742
157,-317.337,134.701,344.742
158,-319.639,129.143,344.742
159,-321.844,123.544,344.742
160,-323.952,117.909,344.742
161,-325.960,112.237,344.742
162,-327.869,106.531,344.742
163,-329.678,100.793,344.742
164,-331.387,95.024,344.742
165,-332.995,89.226,344.742
166,-334.502,83.401,344.742
167,-335.906,77.550,344.742
168,-337.209,71.676,344.742
169,-338.408,65.780,344.742
170,-339.505,59.864,344.742
171,-340.498,53.930,344.742
172,-341.387,47.979,344.742
173,-342.172,42.013,344.742
174,-342.854,36.035,344.742
175,-343.430,30.046,344.742
176,-343.902,24.048,344.742
177,-344.270,18.042,344.742
178,-344.532,12.031,344.742
179,-344.690,6.017,344.742
180,-344.742,0.000,344.742
181,-344.690,-6.017,344.742
182,-344.532,-12.031,344.742
183,-344.270,-18.042,344.742
184,-343.902,-24.048,344.742
185,-343.430,-30.046,344.742
186,-342.854,-36.035,344.742
187,-342.172,-42.013,344.742
188,-341.387,-47.979,344.742
189,-340.498,-53.930,344.742
190,-339.505,-59.864,344.742
191,-338.408,-65.780,344.742
192,-337.209,-71.676,344.742
193,-335.906,-77.550,344.742
194,-334.502,-83.401,344.742
195,-332.995,-89.226,344.742
196,-331.387,-95.024,344.742
197,-329.678,-100.793,344.742
198,-327.869,-106.531,344.742
199,-325.960,-112.237,344.742
200,-323.952,-117.909,344.742
201,-321.844,-123.544,344.742
202,-319.639,-129.143,344.742
203,-317.337,-134.701,344.742
204,-314.938,-140.219,344.742
205,-312.442,-145.694,344.742
206,-309.852,-151.125,344.742
207,-307.167,-156.510,344.742
208,-304.389,-161.847,344.742
209,-301.518,-167.134,344.742
210,-298.555,-172.371,344.742
211,-295.502,-177.555,344.742
212,-292.358,-182.685,344.742
213,-289.125,-187.760,344.742
214,-285.804,-192.777,344.742
215,-282.396,-197.736,344.742
216,-278.902,-202.634,344.742
217,-275.323,-207.471,344.742
218,-271.660,-212.244,344.742
219,-267.915,-216.953,344.742
220,-264.088,-221.596,344.742
221,-260.180,-226.171,344.742
222,-256.193,-230.677,344.742
223,-252.128,-235.114,344.742
224,-247.987,-239.478,344.742
225,-243.769,-243.769,344.742
226,-239.478,-247.987,344.742
227,-235.114,-252.128,344.742
228,-230.677,-256.193,344.742
229,-226.171,-260.180,344.742
230,-221.596,-264.088,344.742
231,-216.953,-267.915,344.742
232,-212.244,-271.660,344.742
233,-207.471,-275.323,344.742
234,-202.634,-278.902,344.742
235,-197.736,-282.396,344.742
236,-192.777,-285.804,344.742
237,-187.760,-289.125,344.742
238,-182.685,-292.358,344.742
239,-177.555,-295.502,344.742
240,-172.371,-298.555,344.742
241,-167.134,-301.518,344.742
242,-161.847,-304.389,344.742
243,-156.510,-307.167,344.742
244,-151.125,-309.852,344.742
245,-145.694,-312.442,344.742
246,-140.219,-314.938,344.742
247,-134.701,-317.337,344.742
248,-129.143,-319.639,344.742
249,-123.544,-321.844,344.742
250,-117.909,-323.952,344.742
251,-112.237,-325.960,344.742
252,-106.531,-327.869,344.742
253,-100.793,-329.678,344.742
254,-95.024,-331.387,344.742
255,-89.226,-332.995,344.742
256,-83.401,-334.502,344.742
257,-77.550,-335.906,344.742
258,-71.676,-337.209,344.742
259,-65.780,-338.408,344.742
260,-59.864,-339.505,344.742
261,-53.930,-340.498,344.742
262,-47.979,-341.387,344.742
263,-42.013,-342.172,344.742
264,-36.035,-342.854,344.742
265,-30.046,-343.430,344.742
266,-24.048,-343.902,344.742
267,-18.042,-344.270,344.742
268,-12.031,-344.532,344.742
269,-6.017,-344.690,344.742
270,0.000,-344.742,344.742
271,6.017,-344.690,344.742
272,12.031,-344.532,344.742
273,18.042,-344.270,344.742
274,24.048,-343.902,344.742
275,30.046,-343.430,344.742
276,36.035,-342.854,344.742
277,42.013,-342.172,344.742
278,47.979,-341.387,344.742
279,53.930,-340.498,344.742
280,59.864,-339.505,344.742
281,65.780,-338.408,344.742
282,71.676,-337.209,344.742
283,77.550,-335.906,344.742
284,83.401,-334.502,344.742
285,89.226,-332.995,344.742
286,95.024,-331.387,344.742
287,100.793,-329.678,344.742
288,106.531,-327.869,344.742
289,112.237,-325.960,344.742
290,117.909,-323.952,344.742
291,123.544,-321.844,344.742
292,129.143,-319.639,344.742
293,134.701,-317.337,344.742
294,140.219,-314.938,344.742
295,145.694,-312.442,344.742
296,151.125,-309.852,344.742
297,156.510,-307.167,344.742
298,161.847,-304.389,344.742
299,167.134,-301.518,344.742
300,172.371,-298.555,344.742
301,177.555,-295.502,344.742
302,182.685,-292.358,344.742
303,187.760,-289.125,344.742
304,192.777,-285.804,344.742
305,197.736,-282.396,344.742
306,202.634,-278.902,344.742
307,207.471,-275.323,344.742
308,212.244,-271.660,344.742
309,216.953,-267.915,344.742
310,221.596,-264.088,344.742
311,226.171,-260.180,344.742
312,230.677,-256.193,344.742
313,235.114,-252.128,344.742
314,239.478,-247.987,344.742
315,243.769,-243.769,344.742
316,247.987,-239.478,344.742
317,252.128,-235.114,344.742
318,256.193,-230.677,344.742
319,260.180,-226.171,344.742
320,264.088,-221.596,344.742
321,267.915,-216.953,344.742
322,271.660,-212.244,344.742
323,275.323,-207.471,344.742
324,278.902,-202.634,344.742
325,282.396,-197.736,344.742
326,285.804,-192.777,344.742
327,289.125,-187.760,344.742
328,292.358,-182.685,344.742
329,295.502,-177.555,344.742
330,298.555,-172.371,344.742
331,301.518,-167.134,344.742
332,304.389,-161.847,344.742
333,307.167,-156.510,344.742
334,309.852,-151.125,344.742
335,312.442,-145.694,344.742
336,314.938,-140.219,344.742
337,317.337,-134.701,344.742
338,319.639,-129.143,344.742
339,321.844,-123.544,344.742
340,323.952,-117.909,344.742
341,325.960,-112.237,344.742
342,327.869,-106.531,344.742
343,329.678,-100.793,344.742
344,331.387,-95.024,344.742
345,332.995,-89.226,344.742
346,334.502,-83.401,344.742
347,335.906,-77.550,344.742
348,337.209,-71.676,344.742
349,338.408,-65.780,344.742
350,339.505,-59.864,344.742
351,340.498,-53.930,344.742
352,341.387,-47.979,344.742
353,342.172,-42.013,344.742
354,342.854,-36.035,344.742
355,343.430,-30.046,344.742
356,343.902,-24.048,344.742
357,344.270,-18.042,344.742
358,344.532,-12.031,344.742
359,344.690,-6.017,344.742
