Angle,x,y,z
0,12.677,0.000,12.677
1,12.676,0.221,12.677
2,12.670,0.442,12.677
3,12.660,0.663,12.677
4,12.647,0.884,12.677
5,12.629,1.105,12.677
6,12.608,1.325,12.677
7,12.583,1.545,12.677
8,12.554,1.764,12.677
9,12.521,1.983,12.677
10,12.485,2.201,12.677
11,12.445,2.419,12.677
12,12.400,2.636,12.677
13,12.353,2.852,12.677
14,12.301,3.067,12.677
15,12.245,3.281,12.677
16,12.186,3.494,12.677
17,12.124,3.707,12.677
18,12.057,3.918,12.677
19,11.987,4.127,12.677
20,11.913,4.336,12.677
21,11.835,4.543,12.677
22,11.754,4.749,12.677
23,11.670,4.953,12.677
24,11.581,5.156,12.677
25,11.490,5.358,12.677
26,11.394,5.557,12.677
27,11.296,5.755,12.677
28,11.194,5.952,12.677
29,11.088,6.146,12.677
30,10.979,6.339,12.677
31,10.867,6.529,12.677
32,10.751,6.718,12.677
33,10.632,6.905,12.677
34,10.510,7.089,12.677
35,10.385,7.271,12.677
36,10.256,7.452,12.677
37,10.125,7.629,12.677
38,9.990,7.805,12.677
39,9.852,7.978,12.677
40,9.712,8.149,12.677
41,9.568,8.317,12.677
42,9.421,8.483,12.677
43,9.272,8.646,12.677
44,9.119,8.807,12.677
45,8.964,8.964,12.677
46,8.807,9.119,12.677
47,8.646,9.272,12.677
48,8.483,9.421,12.677
49,8.317,9.568,12.677
50,8.149,9.712,12.677
51,7.978,9.852,12.677
52,7.805,9.990,12.677
53,7.629,10.125,12.677
54,7.452,10.256,12.677
55,7.271,10.385,12.677
56,7.089,10.510,12.677
57,6.905,10.632,12.677
58,6.718,10.751,12.677
59,6.529,10.867,12.677
60,6.339,10.979,12.677
61,6.146,11.088,12.677
62,5.952,11.194,12.677
63,5.755,11.296,12.677
64,5.557,11.394,12.677
65,5.358,11.490,12.677
66,5.156,11.581,12.677
67,4.953,11.670,12.677
68,4.749,11.754,12.677
69,4.543,11.835,12.677
70,4.336,11.913,12.677
71,4.127,11.987,12.677
72,3.918,12.057,12.677
73,3.707,12.124,12.677
74,3.494,12.186,12.677
75,3.281,12.245,12.677
76,3.067,12.301,12.677
77,2.852,12.353,12.677
78,2.636,12.400,12.677
79,2.419,12.445,12.677
80,2.201,12.485,12.677
81,1.983,12.521,12.677
82,1.764,12.554,12.677
83,1.545,12.583,12.677
84,1.325,12.608,12.677
85,1.105,12.629,12.677
86,0.884,12.647,12.677
87,0.663,12.660,12.677
88,0.442,12.670,12.677
89,0.221,12.676,12.677
90,0.000,12.677,12.677
91,-0.221,12.676,12.677
92,-0.442,12.670,12.677
93,-0.663,12.660,12.677
94,-0.884,12.647,12.677
95,-1.105,12.629,12.677
96,-1.325,12.608,12.677
97,-1.545,12.583,12.677
98,-1.764,12.554,12.677
99,-1.983,12.521,12.677
100,-2.201,12.485,12.677
101,-2.419,12.445,12.677
102,-2.636,12.400,12.677
103,-2.852,12.353,12.677
104,-3.067,12.301,12.677
105,-3.281,12.245,12.677
106,-3.494,12.186,12.677
107,-3.707,12.124,12.677
108,-3.918,12.057,12.677
109,-4.127,11.987,12.677
110,-4.336,11.913,12.677
111,-4.543,11.835,12.677
112,-4.749,11.754,12.677
113,-4.953,11.670,12.677
114,-5.156,11.581,12.677
115,-5.358,11.490,12.677
116,-5.557,11.394,12.677
117,-5.755,11.296,12.677
118,-5.952,11.194,12.677
119,-6.146,11.088,12.677
120,-6.339,10.979,12.677
121,-6.529,10.867,12.677
122,-6.718,10.751,12.677
123,-6.905,10.632,12.677
124,-7.089,10.510,12.677
125,-7.271,10.385,12.677
126,-7.452,10.256,12.677
127,-7.629,10.125,12.677
128,-7.805,9.990,12.677
129,-7.978,9.852,12.677
130,-8.149,9.712,12.677
131,-8.317,9.568,12.677
132,-8.483,9.421,12.677
133,-8.646,9.272,12.677
134,-8.807,9.119,12.677
135,-8.964,8.964,12.677
136,-9.119,8.807,12.677
137,-9.272,8.646,12.677
138,-9.421,8.483,12.677
139,-9.568,8.317,12.677
140,-9.712,8.149,12.677
141,-9.852,7.978,12.677
142,-9.990,7.805,12.677
143,-10.125,7.629,12.677
144,-10.256,7.452,12.677
145,-10.385,7.271,12.677
146,-10.510,7.089,12.677
147,-10.632,6.905,12.677
148,-10.751,6.718,12.677
149,-10.867,6.529,12.677
150,-10.979,6.339,12.677
151,-11.088,6.146,12.677
152,-11.194,5.952,12.677
153,-11.296,5.755,12.677
154,-11.394,5.557,12.677
155,-11.490,5.358,12.677
156,-11.581,5.156,12.677
157,-11.670,4.953,12.677
158,-11.754,4.749,12.677
159,-11.835,4.543,12.677
160,-11.913,4.336,12.677
161,-11.987,4.127,12.677
162,-12.057,3.918,12.677
163,-12.124,3.707,12.677
164,-12.186,3.494,12.677
165,-12.245,3.281,12.677
166,-12.301,3.067,12.677
167,-12.353,2.852,12.677
168,-12.400,2.636,12.677
169,-12.445,2.419,12.677
170,-12.485,2.201,12.677
171,-12.521,1.983,12.677
172,-12.554,1.764,12.677
173,-12.583,1.545,12.677
174,-12.608,1.325,12.677
175,-12.629,1.105,12.677
176,-12.647,0.884,12.677
177,-12.660,0.663,12.677
178,-12.670,0.442,12.677
179,-12.676,0.221,12.677
180,-12.677,0.000,12.677
181,-12.676,-0.221,12.677
182,-12.670,-0.442,12.677
183,-12.660,-0.663,12.677
184,-12.647,-0.884,12.677
185,-12.629,-1.105,12.677
186,-12.608,-1.325,12.677
187,-12.583,-1.545,12.677
188,-12.554,-1.764,12.677
189,-12.521,-1.983,12.677
190,-12.485,-2.201,12.677
191,-12.445,-2.419,12.677
192,-12.400,-2.636,12.677
193,-12.353,-2.852,12.677
194,-12.301,-3.067,12.677
195,-12.245,-3.281,12.677
196,-12.186,-3.494,12.677
197,-12.124,-3.707,12.677
198,-12.057,-3.918,12.677
199,-11.987,-4.127,12.677
200,-11.913,-4.336,12.677
201,-11.835,-4.543,12.677
202,-11.754,-4.749,12.677
203,-11.670,-4.953,12.677
204,-11.581,-5.156,12.677
205,-11.490,-5.358,12.677
206,-11.394,-5.557,12.677
207,-11.296,-5.755,12.677
208,-11.194,-5.952,12.677
209,-11.088,-6.146,12.677
210,-10.979,-6.339,12.677
211,-10.867,-6.529,12.677
212,-10.751,-6.718,12.677
213,-10.632,-6.905,12.677
214,-10.510,-7.089,12.677
215,-10.385,-7.271,12.677
216,-10.256,-7.452,12.677
217,-10.125,-7.629,12.677
218,-9.990,-7.805,12.677
219,-9.852,-7.978,12.677
220,-9.712,-8.149,12.677
221,-9.568,-8.317,12.677
222,-9.421,-8.483,12.677
223,-9.272,-8.646,12.677
224,-9.119,-8.807,12.677
225,-8.964,-8.964,12.677
226,-8.807,-9.119,12.677
227,-8.646,-9.272,12.677
228,-8.483,-9.421,12.677
229,-8.317,-9.568,12.677
230,-8.149,-9.712,12.677
231,-7.978,-9.852,12.677
232,-7.805,-9.990,12.677
233,-7.629,-10.125,12.677
234,-7.452,-10.256,12.677
235,-7.271,-10.385,12.677
236,-7.089,-10.510,12.677
237,-6.905,-10.632,12.677
238,-6.718,-10.751,12.677
239,-6.529,-10.867,12.677
240,-6.339,-10.979,12.677
241,-6.146,-11.088,12.677
242,-5.952,-11.194,12.677
243,-5.755,-11.296,12.677
244,-5.557,-11.394,12.677
245,-5.358,-11.490,12.677
246,-5.156,-11.581,12.677
247,-4.953,-11.670,12.677
248,-4.749,-11.754,12.677
249,-4.543,-11.835,12.677
250,-4.336,-11.913,12.677
251,-4.127,-11.987,12.677
252,-3.918,-12.057,12.677
253,-3.707,-12.124,12.677
254,-3.494,-12.186,12.677
255,-3.281,-12.245,12.677
256,-3.067,-12.301,12.677
257,-2.852,-12.353,12.677
258,-2.636,-12.400,12.677
259,-2.419,-12.445,12.677
260,-2.201,-12.485,12.677
261,-1.983,-12.521,12.677
262,-1.764,-12.554,12.677
263,-1.545,-12.583,12.677
264,-1.325,-12.608,12.677
265,-1.105,-12.629,12.677
266,-0.884,-12.647,12.677
267,-0.663,-12.660,12.677
268,-0.442,-12.670,12.677
269,-0.221,-12.676,12.677
270,0.000,-12.677,12.677
271,0.221,-12.676,12.677
272,0.442,-12.670,12.677
273,0.663,-12.660,12.677
274,0.884,-12.647,12.677
275,1.105,-12.629,12.677
276,1.325,-12.608,12.677
277,1.545,-12.583,12.677
278,1.764,-12.554,12.677
279,1.983,-12.521,12.677
280,2.201,-12.485,12.677
281,2.419,-12.445,12.677
282,2.636,-12.400,12.677
283,2.852,-12.353,12.677
284,3.067,-12.301,12.677
285,3.281,-12.245,12.677
286,3.494,-12.186,12.677
287,3.707,-12.124,12.677
288,3.918,-12.057,12.677
289,4.127,-11.987,12.677
290,4.336,-11.913,12.677
291,4.543,-11.835,12.677
292,4.749,-11.754,12.677
293,4.953,-11.670,12.677
294,5.156,-11.581,12.677
295,5.358,-11.490,12.677
296,5.557,-11.394,12.677
297,5.755,-11.296,12.677
298,5.952,-11.194,12.677
299,6.146,-11.088,12.677
300,6.339,-10.979,12.677
301,6.529,-10.867,12.677
302,6.718,-10.751,12.677
303,6.905,-10.632,12.677
304,7.089,-10.510,12.677
305,7.271,-10.385,12.677
306,7.452,-10.256,12.677
307,7.629,-10.125,12.677
308,7.805,-9.990,12.677
309,7.978,-9.852,12.677
310,8.149,-9.712,12.677
311,8.317,-9.568,12.677
312,8.483,-9.421,12.677
313,8.646,-9.272,12.677
314,8.807,-9.119,12.677
315,8.964,-8.964,12.677
316,9.119,-8.807,12.677
317,9.272,-8.646,12.677
318,9.421,-8.483,12.677
319,9.568,-8.317,12.677
320,9.712,-8.149,12.677
321,9.852,-7.978,12.677
322,9.990,-7.805,12.677
323,10.125,-7.629,12.677
324,10.256,-7.452,12.677
325,10.385,-7.271,12.677
326,10.510,-7.089,12.677
327,10.632,-6.905,12.677
328,10.751,-6.718,12.677
329,10.867,-6.529,12.677
330,10.979,-6.339,12.677
331,11.088,-6.146,12.677
332,11.194,-5.952,12.677
333,11.296,-5.755,12.677
334,11.394,-5.557,12.677
335,11.490,-5.358,12.677
336,11.581,-5.156,12.677
337,11.670,-4.953,12.677
338,11.754,-4.749,12.677
339,11.835,-4.543,12.677
340,11.913,-4.336,12.677
341,11.987,-4.127,12.677
342,12.057,-3.918,12.677
343,12.124,-3.707,12.677
344,12.186,-3.494,12.677
345,12.245,-3.281,12.677
346,12.301,-3.067,12.677
347,12.353,-2.852,12.677
348,12.400,-2.636,12.677
349,12.445,-2.419,12.677
350,12.485,-2.201,12.677
351,12.521,-1.983,12.677
352,12.554,-1.764,12.677
353,12.583,-1.545,12.677
354,12.608,-1.325,12.677
355,12.629,-1.105,12.677
356,12.647,-0.884,12.677
357,12.660,-0.663,12.677
358,12.670,-0.442,12.677
359,12.676,-0.221,12.677
