Angle,x,y,z
0,254.495,0.000,254.495
1,254.456,4.442,254.495
2,254.340,8.882,254.495
3,254.146,13.319,254.495
4,253.875,17.753,254.495
5,253.527,22.181,254.495
6,253.101,26.602,254.495
7,252.598,31.015,254.495
8,252.018,35.419,254.495
9,251.362,39.812,254.495
10,250.629,44.193,254.495
11,249.819,48.560,254.495
12,248.934,52.913,254.495
13,247.973,57.249,254.495
14,246.936,61.568,254.495
15,245.824,65.868,254.495
16,244.637,70.148,254.495
17,243.375,74.407,254.495
18,242.039,78.643,254.495
19,240.630,82.856,254.495
20,239.147,87.042,254.495
21,237.592,91.203,254.495
22,235.964,95.336,254.495
23,234.264,99.439,254.495
24,232.493,103.513,254.495
25,230.651,107.554,254.495
26,228.739,111.563,254.495
27,226.757,115.538,254.495
28,224.706,119.478,254.495
29,222.587,123.382,254.495
30,220.399,127.248,254.495
31,218.145,131.075,254.495
32,215.824,134.862,254.495
33,213.438,138.608,254.495
34,210.986,142.312,254.495
35,208.470,145.972,254.495
36,205.891,149.589,254.495
37,203.249,153.159,254.495
38,200.545,156.683,254.495
39,197.780,160.159,254.495
40,194.955,163.586,254.495
41,192.070,166.964,254.495
42,189.127,170.291,254.495
43,186.126,173.565,254.495
44,183.069,176.787,254.495
45,179.955,179.955,254.495
46,176.787,183.069,254.495
47,173.565,186.126,254.495
48,170.291,189.127,254.495
49,166.964,192.070,254.495
50,163.586,194.955,254.495
51,160.159,197.780,254.495
52,156.683,200.545,254.495
53,153.159,203.249,254.495
54,149.589,205.891,254.495
55,145.972,208.470,254.495
56,142.312,210.986,254.495
57,138.608,213.438,254.495
58,134.862,215.824,254.495
59,131.075,218.145,254.495
60,127.248,220.399,254.495
61,123.382,222.587,254.495
62,119.478,224.706,254.495
63,115.538,226.757,254.495
64,111.563,228.739,254.495
65,107.554,230.651,254.495
66,103.513,232.493,254.495
67,99.439,234.264,254.495
68,95.336,235.964,254.495
69,91.203,237.592,254.495
70,87.042,239.147,254.495
71,82.856,240.630,254.495
72,78.643,242.039,254.495
73,74.407,243.375,254.495
74,70.148,244.637,254.495
75,65.868,245.824,254.495
76,61.568,246.936,254.495
77,57.249,247.973,254.495
78,52.913,248.934,254.495
79,48.560,249.819,254.495
80,44.193,250.629,254.495
81,39.812,251.362,254.495
82,35.419,252.018,254.495
83,31.015,252.598,254.495
84,26.602,253.101,254.495
85,22.181,253.527,254.495
86,17.753,253.875,254.495
87,13.319,254.146,254.495
88,8.882,254.340,254.495
89,4.442,254.456,254.495
90,0.000,254.495,254.495
91,-4.442,254.456,254.495
92,-8.882,254.340,254.495
93,-13.319,254.146,254.495
94,-17.753,253.875,254.495
95,-22.181,253.527,254.495
96,-26.602,253.101,254.495
97,-31.015,252.598,254.495
98,-35.419,252.018,254.495
99,-39.812,251.362,254.495
100,-44.193,250.629,254.495
101,-48.560,249.819,254.495
102,-52.913,248.934,254.495
103,-57.249,247.973,254.495
104,-61.568,246.936,254.495
105,-65.868,245.824,254.495
106,-70.148,244.637,254.495
107,-74.407,243.375,254.495
108,-78.643,242.039,254.495
109,-82.856,240.630,254.495
110,-87.042,239.147,254.495
111,-91.203,237.592,254.495
112,-95.336,235.964,254.495
113,-99.439,234.264,254.495
114,-103.513,232.493,254.495
115,-107.554,230.651,254.495
116,-111.563,228.739,254.495
117,-115.538,226.757,254.495
118,-119.478,224.706,254.495
119,-123.382,222.587,254.495
120,-127.248,220.399,254.495
121,-131.075,218.145,254.495
122,-134.862,215.824,254.495
123,-138.608,213.438,254.495
124,-142.312,210.986,254.495
125,-145.972,208.470,254.495
126,-149.589,205.891,254.495
127,-153.159,203.249,254.495
128,-156.683,200.545,254.495
129,-160.159,197.780,254.495
130,-163.586,194.955,254.495
131,-166.964,192.070,254.495
132,-170.291,189.127,254.495
133,-173.565,186.126,254.495
134,-176.787,183.069,254.495
135,-179.955,179.955,254.495
136,-183.069,176.787,254.495
137,-186.126,173.565,254.495
138,-189.127,170.291,254.495
139,-192.070,166.964,254.495
140,-194.955,163.586,254.495
141,-197.780,160.159,254.495
142,-200.545,156.683,254.495
143,-203.249,153.159,254.495
144,-205.891,149.589,254.495
145,-208.470,145.972,254.495
146,-210.986,142.312,254.495
147,-213.438,138.608,254.495
148,-215.824,134.862,254.495
149,-218.145,131.075,254.495
150,-220.399,127.248,254.495
151,-222.587,123.382,254.495
152,-224.706,119.478,254.495
153,-226.757,115.538,254.495
154,-228.739,111.563,254.495
155,-230.651,107.554,254.495
156,-232.493,103.513,254.495
157,-234.264,99.439,254.495
158,-235.964,95.336,254.495
159,-237.592,91.203,254.495
160,-239.147,87.042,254.495
161,-240.630,82.856,254.495
162,-242.039,78.643,254.495
163,-243.375,74.407,254.495
164,-244.637,70.148,254.495
165,-245.824,65.868,254.495
166,-246.936,61.568,254.495
167,-247.973,57.249,254.495
168,-248.934,52.913,254.495
169,-249.819,48.560,254.495
170,-250.629,44.193,254.495
171,-251.362,39.812,254.495
172,-252.018,35.419,254.495
173,-252.598,31.015,254.495
174,-253.101,26.602,254.495
175,-253.527,22.181,254.495
176,-253.875,17.753,254.495
177,-254.146,13.319,254.495
178,-254.340,8.882,254.495
179,-254.456,4.442,254.495
180,-254.495,0.000,254.495
181,-254.456,-4.442,254.495
182,-254.340,-8.882,254.495
183,-254.146,-13.319,254.495
184,-253.875,-17.753,254.495
185,-253.527,-22.181,254.495
186,-253.101,-26.602,254.495
187,-252.598,-31.015,254.495
188,-252.018,-35.419,254.495
189,-251.362,-39.812,254.495
190,-250.629,-44.193,254.495
191,-249.819,-48.560,254.495
192,-248.934,-52.913,254.495
193,-247.973,-57.249,254.495
194,-246.936,-61.568,254.495
195,-245.824,-65.868,254.495
196,-244.637,-70.148,254.495
197,-243.375,-74.407,254.495
198,-242.039,-78.643,254.495
199,-240.630,-82.856,254.495
200,-239.147,-87.042,254.495
201,-237.592,-91.203,254.495
202,-235.964,-95.336,254.495
203,-234.264,-99.439,254.495
204,-232.493,-103.513,254.495
205,-230.651,-107.554,254.495
206,-228.739,-111.563,254.495
207,-226.757,-115.538,254.495
208,-224.706,-119.478,254.495
209,-222.587,-123.382,254.495
210,-220.399,-127.248,254.495
211,-218.145,-131.075,254.495
212,-215.824,-134.862,254.495
213,-213.438,-138.608,254.495
214,-210.986,-142.312,254.495
215,-208.470,-145.972,254.495
216,-205.891,-149.589,254.495
217,-203.249,-153.159,254.495
218,-200.545,-156.683,254.495
219,-197.780,-160.159,254.495
220,-194.955,-163.586,254.495
221,-192.070,-166.964,254.495
222,-189.127,-170.291,254.495
223,-186.126,-173.565,254.495
224,-183.069,-176.787,254.495
225,-179.955,-179.955,254.495
226,-176.787,-183.069,254.495
227,-173.565,-186.126,254.495
228,-170.291,-189.127,254.495
229,-166.964,-192.070,254.495
230,-163.586,-194.955,254.495
231,-160.159,-197.780,254.495
232,-156.683,-200.545,254.495
233,-153.159,-203.249,254.495
234,-149.589,-205.891,254.495
235,-145.972,-208.470,254.495
236,-142.312,-210.986,254.495
237,-138.608,-213.438,254.495
238,-134.862,-215.824,254.495
239,-131.075,-218.145,254.495
240,-127.248,-220.399,254.495
241,-123.382,-222.587,254.495
242,-119.478,-224.706,254.495
243,-115.538,-226.757,254.495
244,-111.563,-228.739,254.495
245,-107.554,-230.651,254.495
246,-103.513,-232.493,254.495
247,-99.439,-234.264,254.495
248,-95.336,-235.964,254.495
249,-91.203,-237.592,254.495
250,-87.042,-239.147,254.495
251,-82.856,-240.630,254.495
252,-78.643,-242.039,254.495
253,-74.407,-243.375,254.495
254,-70.148,-244.637,254.495
255,-65.868,-245.824,254.495
256,-61.568,-246.936,254.495
257,-57.249,-247.973,254.495
258,-52.913,-248.934,254.495
259,-48.560,-249.819,254.495
260,-44.193,-250.629,254.495
261,-39.812,-251.362,254.495
262,-35.419,-252.018,254.495
263,-31.015,-252.598,254.495
264,-26.602,-253.101,254.495
265,-22.181,-253.527,254.495
266,-17.753,-253.875,254.495
267,-13.319,-254.146,254.495
268,-8.882,-254.340,254.495
269,-4.442,-254.456,254.495
270,0.000,-254.495,254.495
271,4.442,-254.456,254.495
272,8.882,-254.340,254.495
273,13.319,-254.146,254.495
274,17.753,-253.875,254.495
275,22.181,-253.527,254.495
276,26.602,-253.101,254.495
277,31.015,-252.598,254.495
278,35.419,-252.018,254.495
279,39.812,-251.362,254.495
280,44.193,-250.629,254.495
281,48.560,-249.819,254.495
282,52.913,-248.934,254.495
283,57.249,-247.973,254.495
284,61.568,-246.936,254.495
285,65.868,-245.824,254.495
286,70.148,-244.637,254.495
287,74.407,-243.375,254.495
288,78.643,-242.039,254.495
289,82.856,-240.630,254.495
290,87.042,-239.147,254.495
291,91.203,-237.592,254.495
292,95.336,-235.964,254.495
293,99.439,-234.264,254.495
294,103.513,-232.493,254.495
295,107.554,-230.651,254.495
296,111.563,-228.739,254.495
297,115.538,-226.757,254.495
298,119.478,-224.706,254.495
299,123.382,-222.587,254.495
300,127.248,-220.399,254.495
301,131.075,-218.145,254.495
302,134.862,-215.824,254.495
303,138.608,-213.438,254.495
304,142.312,-210.986,254.495
305,145.972,-208.470,254.495
306,149.589,-205.891,254.495
307,153.159,-203.249,254.495
308,156.683,-200.545,254.495
309,160.159,-197.780,254.495
310,163.586,-194.955,254.495
311,166.964,-192.070,254.495
312,170.291,-189.127,254.495
313,173.565,-186.126,254.495
314,176.787,-183.069,254.495
315,179.955,-179.955,254.495
316,183.069,-176.787,254.495
317,186.126,-173.565,254.495
318,189.127,-170.291,254.495
319,192.070,-166.964,254.495
320,194.955,-163.586,254.495
321,197.780,-160.159,254.495
322,200.545,-156.683,254.495
323,203.249,-153.159,254.495
324,205.891,-149.589,254.495
325,208.470,-145.972,254.495
326,210.986,-142.312,254.495
327,213.438,-138.608,254.495
328,215.824,-134.862,254.495
329,218.145,-131.075,254.495
330,220.399,-127.248,254.495
331,222.587,-123.382,254.495
332,224.706,-119.478,254.495
333,226.757,-115.538,254.495
334,228.739,-111.563,254.495
335,230.651,-107.554,254.495
336,232.493,-103.513,254.495
337,234.264,-99.439,254.495
338,235.964,-95.336,254.495
339,237.592,-91.203,254.495
340,239.147,-87.042,254.495
341,240.630,-82.856,254.495
342,242.039,-78.643,254.495
343,243.375,-74.407,254.495
344,244.637,-70.148,254.495
345,245.824,-65.868,254.495
346,246.936,-61.568,254.495
347,247.973,-57.249,254.495
348,248.934,-52.913,254.495
349,249.819,-48.560,254.495
350,250.629,-44.193,254.495
351,251.362,-39.812,254.495
352,252.018,-35.419,254.495
353,252.598,-31.015,254.495
354,253.101,-26.602,254.495
355,253.527,-22.181,254.495
356,253.875,-17.753,254.495
357,254.146,-13.319,254.495
358,254.340,-8.882,254.495
359,254.456,-4.442,254.495
