Angle,x,y,z
0,241.755,0.000,241.755
1,241.718,4.219,241.755
2,241.607,8.437,241.755
3,241.423,12.652,241.755
4,241.166,16.864,241.755
5,240.835,21.070,241.755
6,240.430,25.270,241.755
7,239.953,29.462,241.755
8,239.402,33.646,241.755
9,238.778,37.819,241.755
10,238.082,41.980,241.755
11,237.313,46.129,241.755
12,236.472,50.264,241.755
13,235.559,54.383,241.755
14,234.574,58.486,241.755
15,233.517,62.571,241.755
16,232.390,66.637,241.755
17,231.191,70.682,241.755
18,229.922,74.706,241.755
19,228.584,78.708,241.755
20,227.175,82.685,241.755
21,225.697,86.637,241.755
22,224.151,90.563,241.755
23,222.536,94.461,241.755
24,220.854,98.331,241.755
25,219.104,102.170,241.755
26,217.288,105.978,241.755
27,215.405,109.754,241.755
28,213.457,113.497,241.755
29,211.443,117.205,241.755
30,209.366,120.877,241.755
31,207.224,124.513,241.755
32,205.020,128.110,241.755
33,202.753,131.669,241.755
34,200.424,135.188,241.755
35,198.034,138.665,241.755
36,195.584,142.100,241.755
37,193.074,145.492,241.755
38,190.505,148.839,241.755
39,187.879,152.141,241.755
40,185.195,155.397,241.755
41,182.455,158.605,241.755
42,179.659,161.765,241.755
43,176.808,164.876,241.755
44,173.904,167.937,241.755
45,170.946,170.946,241.755
46,167.937,173.904,241.755
47,164.876,176.808,241.755
48,161.765,179.659,241.755
49,158.605,182.455,241.755
50,155.397,185.195,241.755
51,152.141,187.879,241.755
52,148.839,190.505,241.755
53,145.492,193.074,241.755
54,142.100,195.584,241.755
55,138.665,198.034,241.755
56,135.188,200.424,241.755
57,131.669,202.753,241.755
58,128.110,205.020,241.755
59,124.513,207.224,241.755
60,120.877,209.366,241.755
61,117.205,211.443,241.755
62,113.497,213.457,241.755
63,109.754,215.405,241.755
64,105.978,217.288,241.755
65,102.170,219.104,241.755
66,98.331,220.854,241.755
67,94.461,222.536,241.755
68,90.563,224.151,241.755
69,86.637,225.697,241.755
70,82.685,227.175,241.755
71,78.708,228.584,241.755
72,74.706,229.922,241.755
73,70.682,231.191,241.755
74,66.637,232.390,241.755
75,62.571,233.517,241.755
76,58.486,234.574,241.755
77,54.383,235.559,241.755
78,50.264,236.472,241.755
79,46.129,237.313,241.755
80,41.980,238.082,241.755
81,37.819,238.778,241.755
82,33.646,239.402,241.755
83,29.462,239.953,241.755
84,25.270,240.430,241.755
85,21.070,240.835,241.755
86,16.864,241.166,241.755
87,12.652,241.423,241.755
88,8.437,241.607,241.755
89,4.219,241.718,241.755
90,0.000,241.755,241.755
91,-4.219,241.718,241.755
92,-8.437,241.607,241.755
93,-12.652,241.423,241.755
94,-16.864,241.166,241.755
95,-21.070,240.835,241.755
96,-25.270,240.430,241.755
97,-29.462,239.953,241.755
98,-33.646,239.402,241.755
99,-37.819,238.778,241.755
100,-41.980,238.082,241.755
101,-46.129,237.313,241.755
102,-50.264,236.472,241.755
103,-54.383,235.559,241.755
104,-58.486,234.574,241.755
105,-62.571,233.517,241.755
106,-66.637,232.390,241.755
107,-70.682,231.191,241.755
108,-74.706,229.922,241.755
109,-78.708,228.584,241.755
110,-82.685,227.175,241.755
111,-86.637,225.697,241.755
112,-90.563,224.151,241.755
113,-94.461,222.536,241.755
114,-98.331,220.854,241.755
115,-102.170,219.104,241.755
116,-105.978,217.288,241.755
117,-109.754,215.405,241.755
118,-113.497,213.457,241.755
119,-117.205,211.443,241.755
120,-120.877,209.366,241.755
121,-124.513,207.224,241.755
122,-128.110,205.020,241.755
123,-131.669,202.753,241.755
124,-135.188,200.424,241.755
125,-138.665,198.034,241.755
126,-142.100,195.584,241.755
127,-145.492,193.074,241.755
128,-148.839,190.505,241.755
129,-152.141,187.879,241.755
130,-155.397,185.195,241.755
131,-158.605,182.455,241.755
132,-161.765,179.659,241.755
133,-164.876,176.808,241.755
134,-167.937,173.904,241.755
135,-170.946,170.946,241.755
136,-173.904,167.937,241.755
137,-176.808,164.876,241.755
138,-179.659,161.765,241.755
139,-182.455,158.605,241.755
140,-185.195,155.397,241.755
141,-187.879,152.141,241.755
142,-190.505,148.839,241.755
143,-193.074,145.492,241.755
144,-195.584,142.100,241.755
145,-198.034,138.665,241.755
146,-200.424,135.188,241.755
147,-202.753,131.669,241.755
148,-205.020,128.110,241.755
149,-207.224,124.513,241.755
150,-209.366,120.877,241.755
151,-211.443,117.205,241.755
152,-213.457,113.497,241.755
153,-215.405,109.754,241.755
154,-217.288,105.978,241.755
155,-219.104,102.170,241.755
156,-220.854,98.331,241.755
157,-222.536,94.461,241.755
158,-224.151,90.563,241.755
159,-225.697,86.637,241.755
160,-227.175,82.685,241.755
161,-228.584,78.708,241.755
162,-229.922,74.706,241.755
163,-231.191,70.682,241.755
164,-232.390,66.637,241.755
165,-233.517,62.571,241.755
166,-234.574,58.486,241.755
167,-235.559,54.383,241.755
168,-236.472,50.264,241.755
169,-237.313,46.129,241.755
170,-238.082,41.980,241.755
171,-238.778,37.819,241.755
172,-239.402,33.646,241.755
173,-239.953,29.462,241.755
174,-240.430,25.270,241.755
175,-240.835,21.070,241.755
176,-241.166,16.864,241.755
177,-241.423,12.652,241.755
178,-241.607,8.437,241.755
179,-241.718,4.219,241.755
180,-241.755,0.000,241.755
181,-241.718,-4.219,241.755
182,-241.607,-8.437,241.755
183,-241.423,-12.652,241.755
184,-241.166,-16.864,241.755
185,-240.835,-21.070,241.755
186,-240.430,-25.270,241.755
187,-239.953,-29.462,241.755
188,-239.402,-33.646,241.755
189,-238.778,-37.819,241.755
190,-238.082,-41.980,241.755
191,-237.313,-46.129,241.755
192,-236.472,-50.264,241.755
193,-235.559,-54.383,241.755
194,-234.574,-58.486,241.755
195,-233.517,-62.571,241.755
196,-232.390,-66.637,241.755
197,-231.191,-70.682,241.755
198,-229.922,-74.706,241.755
199,-228.584,-78.708,241.755
200,-227.175,-82.685,241.755
201,-225.697,-86.637,241.755
202,-224.151,-90.563,241.755
203,-222.536,-94.461,241.755
204,-220.854,-98.331,241.755
205,-219.104,-102.170,241.755
206,-217.288,-105.978,241.755
207,-215.405,-109.754,241.755
208,-213.457,-113.497,241.755
209,-211.443,-117.205,241.755
210,-209.366,-120.877,241.755
211,-207.224,-124.513,241.755
212,-205.020,-128.110,241.755
213,-202.753,-131.669,241.755
214,-200.424,-135.188,241.755
215,-198.034,-138.665,241.755
216,-195.584,-142.100,241.755
217,-193.074,-145.492,241.755
218,-190.505,-148.839,241.755
219,-187.879,-152.141,241.755
220,-185.195,-155.397,241.755
221,-182.455,-158.605,241.755
222,-179.659,-161.765,241.755
223,-176.808,-164.876,241.755
224,-173.904,-167.937,241.755
225,-170.946,-170.946,241.755
226,-167.937,-173.904,241.755
227,-164.876,-176.808,241.755
228,-161.765,-179.659,241.755
229,-158.605,-182.455,241.755
230,-155.397,-185.195,241.755
231,-152.141,-187.879,241.755
232,-148.839,-190.505,241.755
233,-145.492,-193.074,241.755
234,-142.100,-195.584,241.755
235,-138.665,-198.034,241.755
236,-135.188,-200.424,241.755
237,-131.669,-202.753,241.755
238,-128.110,-205.020,241.755
239,-124.513,-207.224,241.755
240,-120.877,-209.366,241.755
241,-117.205,-211.443,241.755
242,-113.497,-213.457,241.755
243,-109.754,-215.405,241.755
244,-105.978,-217.288,241.755
245,-102.170,-219.104,241.755
246,-98.331,-220.854,241.755
247,-94.461,-222.536,241.755
248,-90.563,-224.151,241.755
249,-86.637,-225.697,241.755
250,-82.685,-227.175,241.755
251,-78.708,-228.584,241.755
252,-74.706,-229.922,241.755
253,-70.682,-231.191,241.755
254,-66.637,-232.390,241.755
255,-62.571,-233.517,241.755
256,-58.486,-234.574,241.755
257,-54.383,-235.559,241.755
258,-50.264,-236.472,241.755
259,-46.129,-237.313,241.755
260,-41.980,-238.082,241.755
261,-37.819,-238.778,241.755
262,-33.646,-239.402,241.755
263,-29.462,-239.953,241.755
264,-25.270,-240.430,241.755
265,-21.070,-240.835,241.755
266,-16.864,-241.166,241.755
267,-12.652,-241.423,241.755
268,-8.437,-241.607,241.755
269,-4.219,-241.718,241.755
270,0.000,-241.755,241.755
271,4.219,-241.718,241.755
272,8.437,-241.607,241.755
273,12.652,-241.423,241.755
274,16.864,-241.166,241.755
275,21.070,-240.835,241.755
276,25.270,-240.430,241.755
277,29.462,-239.953,241.755
278,33.646,-239.402,241.755
279,37.819,-238.778,241.755
280,41.980,-238.082,241.755
281,46.129,-237.313,241.755
282,50.264,-236.472,241.755
283,54.383,-235.559,241.755
284,58.486,-234.574,241.755
285,62.571,-233.517,241.755
286,66.637,-232.390,241.755
287,70.682,-231.191,241.755
288,74.706,-229.922,241.755
289,78.708,-228.584,241.755
290,82.685,-227.175,241.755
291,86.637,-225.697,241.755
292,90.563,-224.151,241.755
293,94.461,-222.536,241.755
294,98.331,-220.854,241.755
295,102.170,-219.104,241.755
296,105.978,-217.288,241.755
297,109.754,-215.405,241.755
298,113.497,-213.457,241.755
299,117.205,-211.443,241.755
300,120.877,-209.366,241.755
301,124.513,-207.224,241.755
302,128.110,-205.020,241.755
303,131.669,-202.753,241.755
304,135.188,-200.424,241.755
305,138.665,-198.034,241.755
306,142.100,-195.584,241.755
307,145.492,-193.074,241.755
308,148.839,-190.505,241.755
309,152.141,-187.879,241.755
310,155.397,-185.195,241.755
311,158.605,-182.455,241.755
312,161.765,-179.659,241.755
313,164.876,-176.808,241.755
314,167.937,-173.904,241.755
315,170.946,-170.946,241.755
316,173.904,-167.937,241.755
317,176.808,-164.876,241.755
318,179.659,-161.765,241.755
319,182.455,-158.605,241.755
320,185.195,-155.397,241.755
321,187.879,-152.141,241.755
322,190.505,-148.839,241.755
323,193.074,-145.492,241.755
324,195.584,-142.100,241.755
325,198.034,-138.665,241.755
326,200.424,-135.188,241.755
327,202.753,-131.669,241.755
328,205.020,-128.110,241.755
329,207.224,-124.513,241.755
330,209.366,-120.877,241.755
331,211.443,-117.205,241.755
332,213.457,-113.497,241.755
333,215.405,-109.754,241.755
334,217.288,-105.978,241.755
335,219.104,-102.170,241.755
336,220.854,-98.331,241.755
337,222.536,-94.461,241.755
338,224.151,-90.563,241.755
339,225.697,-86.637,241.755
340,227.175,-82.685,241.755
341,228.584,-78.708,241.755
342,229.922,-74.706,241.755
343,231.191,-70.682,241.755
344,232.390,-66.637,241.755
345,233.517,-62.571,241.755
346,234.574,-58.486,241.755
347,235.559,-54.383,241.755
348,236.472,-50.264,241.755
349,237.313,-46.129,241.755
350,238.082,-41.980,241.755
351,238.778,-37.819,241.755
352,239.402,-33.646,241.755
353,239.953,-29.462,241.755
354,240.430,-25.270,241.755
355,240.835,-21.070,241.755
356,241.166,-16.864,241.755
357,241.423,-12.652,241.755
358,241.607,-8.437,241.755
359,241.718,-4.219,241.755
