Angle,x,y,z
0,14.553,0.000,14.553
1,14.550,0.254,14.553
2,14.544,0.508,14.553
3,14.533,0.762,14.553
4,14.517,1.015,14.553
5,14.497,1.268,14.553
6,14.473,1.521,14.553
7,14.444,1.774,14.553
8,14.411,2.025,14.553
9,14.373,2.277,14.553
10,14.332,2.527,14.553
11,14.285,2.777,14.553
12,14.235,3.026,14.553
13,14.180,3.274,14.553
14,14.120,3.521,14.553
15,14.057,3.767,14.553
16,13.989,4.011,14.553
17,13.917,4.255,14.553
18,13.840,4.497,14.553
19,13.760,4.738,14.553
20,13.675,4.977,14.553
21,13.586,5.215,14.553
22,13.493,5.452,14.553
23,13.396,5.686,14.553
24,13.295,5.919,14.553
25,13.189,6.150,14.553
26,13.080,6.379,14.553
27,12.967,6.607,14.553
28,12.849,6.832,14.553
29,12.728,7.055,14.553
30,12.603,7.276,14.553
31,12.474,7.495,14.553
32,12.341,7.712,14.553
33,12.205,7.926,14.553
34,12.065,8.138,14.553
35,11.921,8.347,14.553
36,11.773,8.554,14.553
37,11.622,8.758,14.553
38,11.468,8.960,14.553
39,11.310,9.158,14.553
40,11.148,9.354,14.553
41,10.983,9.547,14.553
42,10.815,9.738,14.553
43,10.643,9.925,14.553
44,10.468,10.109,14.553
45,10.290,10.290,14.553
46,10.109,10.468,14.553
47,9.925,10.643,14.553
48,9.738,10.815,14.553
49,9.547,10.983,14.553
50,9.354,11.148,14.553
51,9.158,11.310,14.553
52,8.960,11.468,14.553
53,8.758,11.622,14.553
54,8.554,11.773,14.553
55,8.347,11.921,14.553
56,8.138,12.065,14.553
57,7.926,12.205,14.553
58,7.712,12.341,14.553
59,7.495,12.474,14.553
60,7.276,12.603,14.553
61,7.055,12.728,14.553
62,6.832,12.849,14.553
63,6.607,12.967,14.553
64,6.379,13.080,14.553
65,6.150,13.189,14.553
66,5.919,13.295,14.553
67,5.686,13.396,14.553
68,5.452,13.493,14.553
69,5.215,13.586,14.553
70,4.977,13.675,14.553
71,4.738,13.760,14.553
72,4.497,13.840,14.553
73,4.255,13.917,14.553
74,4.011,13.989,14.553
75,3.767,14.057,14.553
76,3.521,14.120,14.553
77,3.274,14.180,14.553
78,3.026,14.235,14.553
79,2.777,14.285,14.553
80,2.527,14.332,14.553
81,2.277,14.373,14.553
82,2.025,14.411,14.553
83,1.774,14.444,14.553
84,1.521,14.473,14.553
85,1.268,14.497,14.553
86,1.015,14.517,14.553
87,0.762,14.533,14.553
88,0.508,14.544,14.553
89,0.254,14.550,14.553
90,0.000,14.553,14.553
91,-0.254,14.550,14.553
92,-0.508,14.544,14.553
93,-0.762,14.533,14.553
94,-1.015,14.517,14.553
95,-1.268,14.497,14.553
96,-1.521,14.473,14.553
97,-1.774,14.444,14.553
98,-2.025,14.411,14.553
99,-2.277,14.373,14.553
100,-2.527,14.332,14.553
101,-2.777,14.285,14.553
102,-3.026,14.235,14.553
103,-3.274,14.180,14.553
104,-3.521,14.120,14.553
105,-3.767,14.057,14.553
106,-4.011,13.989,14.553
107,-4.255,13.917,14.553
108,-4.497,13.840,14.553
109,-4.738,13.760,14.553
110,-4.977,13.675,14.553
111,-5.215,13.586,14.553
112,-5.452,13.493,14.553
113,-5.686,13.396,14.553
114,-5.919,13.295,14.553
115,-6.150,13.189,14.553
116,-6.379,13.080,14.553
117,-6.607,12.967,14.553
118,-6.832,12.849,14.553
119,-7.055,12.728,14.553
120,-7.276,12.603,14.553
121,-7.495,12.474,14.553
122,-7.712,12.341,14.553
123,-7.926,12.205,14.553
124,-8.138,12.065,14.553
125,-8.347,11.921,14.553
126,-8.554,11.773,14.553
127,-8.758,11.622,14.553
128,-8.960,11.468,14.553
129,-9.158,11.310,14.553
130,-9.354,11.148,14.553
131,-9.547,10.983,14.553
132,-9.738,10.815,14.553
133,-9.925,10.643,14.553
134,-10.109,10.468,14.553
135,-10.290,10.290,14.553
136,-10.468,10.109,14.553
137,-10.643,9.925,14.553
138,-10.815,9.738,14.553
139,-10.983,9.547,14.553
140,-11.148,9.354,14.553
141,-11.310,9.158,14.553
142,-11.468,8.960,14.553
143,-11.622,8.758,14.553
144,-11.773,8.554,14.553
145,-11.921,8.347,14.553
146,-12.065,8.138,14.553
147,-12.205,7.926,14.553
148,-12.341,7.712,14.553
149,-12.474,7.495,14.553
150,-12.603,7.276,14.553
151,-12.728,7.055,14.553
152,-12.849,6.832,14.553
153,-12.967,6.607,14.553
154,-13.080,6.379,14.553
155,-13.189,6.150,14.553
156,-13.295,5.919,14.553
157,-13.396,5.686,14.553
158,-13.493,5.452,14.553
159,-13.586,5.215,14.553
160,-13.675,4.977,14.553
161,-13.760,4.738,14.553
162,-13.840,4.497,14.553
163,-13.917,4.255,14.553
164,-13.989,4.011,14.553
165,-14.057,3.767,14.553
166,-14.120,3.521,14.553
167,-14.180,3.274,14.553
168,-14.235,3.026,14.553
169,-14.285,2.777,14.553
170,-14.332,2.527,14.553
171,-14.373,2.277,14.553
172,-14.411,2.025,14.553
173,-14.444,1.774,14.553
174,-14.473,1.521,14.553
175,-14.497,1.268,14.553
176,-14.517,1.015,14.553
177,-14.533,0.762,14.553
178,-14.544,0.508,14.553
179,-14.550,0.254,14.553
180,-14.553,0.000,14.553
181,-14.550,-0.254,14.553
182,-14.544,-0.508,14.553
183,-14.533,-0.762,14.553
184,-14.517,-1.015,14.553
185,-14.497,-1.268,14.553
186,-14.473,-1.521,14.553
187,-14.444,-1.774,14.553
188,-14.411,-2.025,14.553
189,-14.373,-2.277,14.553
190,-14.332,-2.527,14.553
191,-14.285,-2.777,14.553
192,-14.235,-3.026,14.553
193,-14.180,-3.274,14.553
194,-14.120,-3.521,14.553
195,-14.057,-3.767,14.553
196,-13.989,-4.011,14.553
197,-13.917,-4.255,14.553
198,-13.840,-4.497,14.553
199,-13.760,-4.738,14.553
200,-13.675,-4.977,14.553
201,-13.586,-5.215,14.553
202,-13.493,-5.452,14.553
203,-13.396,-5.686,14.553
204,-13.295,-5.919,14.553
205,-13.189,-6.150,14.553
206,-13.080,-6.379,14.553
207,-12.967,-6.607,14.553
208,-12.849,-6.832,14.553
209,-12.728,-7.055,14.553
210,-12.603,-7.276,14.553
211,-12.474,-7.495,14.553
212,-12.341,-7.712,14.553
213,-12.205,-7.926,14.553
214,-12.065,-8.138,14.553
215,-11.921,-8.347,14.553
216,-11.773,-8.554,14.553
217,-11.622,-8.758,14.553
218,-11.468,-8.960,14.553
219,-11.310,-9.158,14.553
220,-11.148,-9.354,14.553
221,-10.983,-9.547,14.553
222,-10.815,-9.738,14.553
223,-10.643,-9.925,14.553
224,-10.468,-10.109,14.553
225,-10.290,-10.290,14.553
226,-10.109,-10.468,14.553
227,-9.925,-10.643,14.553
228,-9.738,-10.815,14.553
229,-9.547,-10.983,14.553
230,-9.354,-11.148,14.553
231,-9.158,-11.310,14.553
232,-8.960,-11.468,14.553
233,-8.758,-11.622,14.553
234,-8.554,-11.773,14.553
235,-8.347,-11.921,14.553
236,-8.138,-12.065,14.553
237,-7.926,-12.205,14.553
238,-7.712,-12.341,14.553
239,-7.495,-12.474,14.553
240,-7.276,-12.603,14.553
241,-7.055,-12.728,14.553
242,-6.832,-12.849,14.553
243,-6.607,-12.967,14.553
244,-6.379,-13.080,14.553
245,-6.150,-13.189,14.553
246,-5.919,-13.295,14.553
247,-5.686,-13.396,14.553
248,-5.452,-13.493,14.553
249,-5.215,-13.586,14.553
250,-4.977,-13.675,14.553
251,-4.738,-13.760,14.553
252,-4.497,-13.840,14.553
253,-4.255,-13.917,14.553
254,-4.011,-13.989,14.553
255,-3.767,-14.057,14.553
256,-3.521,-14.120,14.553
257,-3.274,-14.180,14.553
258,-3.026,-14.235,14.553
259,-2.777,-14.285,14.553
260,-2.527,-14.332,14.553
261,-2.277,-14.373,14.553
262,-2.025,-14.411,14.553
263,-1.774,-14.444,14.553
264,-1.521,-14.473,14.553
265,-1.268,-14.497,14.553
266,-1.015,-14.517,14.553
267,-0.762,-14.533,14.553
268,-0.508,-14.544,14.553
269,-0.254,-14.550,14.553
270,0.000,-14.553,14.553
271,0.254,-14.550,14.553
272,0.508,-14.544,14.553
273,0.762,-14.533,14.553
274,1.015,-14.517,14.553
275,1.268,-14.497,14.553
276,1.521,-14.473,14.553
277,1.774,-14.444,14.553
278,2.025,-14.411,14.553
279,2.277,-14.373,14.553
280,2.527,-14.332,14.553
281,2.777,-14.285,14.553
282,3.026,-14.235,14.553
283,3.274,-14.180,14.553
284,3.521,-14.120,14.553
285,3.767,-14.057,14.553
286,4.011,-13.989,14.553
287,4.255,-13.917,14.553
288,4.497,-13.840,14.553
289,4.738,-13.760,14.553
290,4.977,-13.675,14.553
291,5.215,-13.586,14.553
292,5.452,-13.493,14.553
293,5.686,-13.396,14.553
294,5.919,-13.295,14.553
295,6.150,-13.189,14.553
296,6.379,-13.080,14.553
297,6.607,-12.967,14.553
298,6.832,-12.849,14.553
299,7.055,-12.728,14.553
300,7.276,-12.603,14.553
301,7.495,-12.474,14.553
302,7.712,-12.341,14.553
303,7.926,-12.205,14.553
304,8.138,-12.065,14.553
305,8.347,-11.921,14.553
306,8.554,-11.773,14.553
307,8.758,-11.622,14.553
308,8.960,-11.468,14.553
309,9.158,-11.310,14.553
310,9.354,-11.148,14.553
311,9.547,-10.983,14.553
312,9.738,-10.815,14.553
313,9.925,-10.643,14.553
314,10.109,-10.468,14.553
315,10.290,-10.290,14.553
316,10.468,-10.109,14.553
317,10.643,-9.925,14.553
318,10.815,-9.738,14.553
319,10.983,-9.547,14.553
320,11.148,-9.354,14.553
321,11.310,-9.158,14.553
322,11.468,-8.960,14.553
323,11.622,-8.758,14.553
324,11.773,-8.554,14.553
325,11.921,-8.347,14.553
326,12.065,-8.138,14.553
327,12.205,-7.926,14.553
328,12.341,-7.712,14.553
329,12.474,-7.495,14.553
330,12.603,-7.276,14.553
331,12.728,-7.055,14.553
332,12.849,-6.832,14.553
333,12.967,-6.607,14.553
334,13.080,-6.379,14.553
335,13.189,-6.150,14.553
336,13.295,-5.919,14.553
337,13.396,-5.686,14.553
338,13.493,-5.452,14.553
339,13.586,-5.215,14.553
340,13.675,-4.977,14.553
341,13.760,-4.738,14.553
342,13.840,-4.497,14.553
343,13.917,-4.255,14.553
344,13.989,-4.011,14.553
345,14.057,-3.767,14.553
346,14.120,-3.521,14.553
347,14.180,-3.274,14.553
348,14.235,-3.026,14.553
349,14.285,-2.777,14.553
350,14.332,-2.527,14.553
351,14.373,-2.277,14.553
352,14.411,-2.025,14.553
353,14.444,-1.774,14.553
354,14.473,-1.521,14.553
355,14.497,-1.268,14.553
356,14.517,-1.015,14.553
357,14.533,-0.762,14.553
358,14.544,-0.508,14.553
359,14.550,-0.254,14.553
