Angle,x,y,z
0,227.493,0.000,227.493
1,227.458,3.970,227.493
2,227.354,7.939,227.493
3,227.181,11.906,227.493
4,226.938,15.869,227.493
5,226.627,19.827,227.493
6,226.246,23.779,227.493
7,225.797,27.724,227.493
8,225.279,31.661,227.493
9,224.692,35.588,227.493
10,224.036,39.504,227.493
11,223.313,43.408,227.493
12,222.521,47.298,227.493
13,221.662,51.175,227.493
14,220.735,55.035,227.493
15,219.741,58.879,227.493
16,218.680,62.705,227.493
17,217.552,66.512,227.493
18,216.358,70.299,227.493
19,215.098,74.064,227.493
20,213.773,77.807,227.493
21,212.383,81.526,227.493
22,210.927,85.220,227.493
23,209.408,88.888,227.493
24,207.825,92.530,227.493
25,206.178,96.142,227.493
26,204.469,99.726,227.493
27,202.697,103.279,227.493
28,200.864,106.801,227.493
29,198.969,110.291,227.493
30,197.014,113.746,227.493
31,194.999,117.167,227.493
32,192.925,120.553,227.493
33,190.791,123.901,227.493
34,188.600,127.212,227.493
35,186.351,130.484,227.493
36,184.045,133.717,227.493
37,181.684,136.908,227.493
38,179.267,140.058,227.493
39,176.795,143.166,227.493
40,174.269,146.229,227.493
41,171.691,149.249,227.493
42,169.060,152.222,227.493
43,166.377,155.150,227.493
44,163.644,158.030,227.493
45,160.861,160.861,227.493
46,158.030,163.644,227.493
47,155.150,166.377,227.493
48,152.222,169.060,227.493
49,149.249,171.691,227.493
50,146.229,174.269,227.493
51,143.166,176.795,227.493
52,140.058,179.267,227.493
53,136.908,181.684,227.493
54,133.717,184.045,227.493
55,130.484,186.351,227.493
56,127.212,188.600,227.493
57,123.901,190.791,227.493
58,120.553,192.925,227.493
59,117.167,194.999,227.493
60,113.746,197.014,227.493
61,110.291,198.969,227.493
62,106.801,200.864,227.493
63,103.279,202.697,227.493
64,99.726,204.469,227.493
65,96.142,206.178,227.493
66,92.530,207.825,227.493
67,88.888,209.408,227.493
68,85.220,210.927,227.493
69,81.526,212.383,227.493
70,77.807,213.773,227.493
71,74.064,215.098,227.493
72,70.299,216.358,227.493
73,66.512,217.552,227.493
74,62.705,218.680,227.493
75,58.879,219.741,227.493
76,55.035,220.735,227.493
77,51.175,221.662,227.493
78,47.298,222.521,227.493
79,43.408,223.313,227.493
80,39.504,224.036,227.493
81,35.588,224.692,227.493
82,31.661,225.279,227.493
83,27.724,225.797,227.493
84,23.779,226.246,227.493
85,19.827,226.627,227.493
86,15.869,226.938,227.493
87,11.906,227.181,227.493
88,7.939,227.354,227.493
89,3.970,227.458,227.493
90,0.000,227.493,227.493
91,-3.970,227.458,227.493
92,-7.939,227.354,227.493
93,-11.906,227.181,227.493
94,-15.869,226.938,227.493
95,-19.827,226.627,227.493
96,-23.779,226.246,227.493
97,-27.724,225.797,227.493
98,-31.661,225.279,227.493
99,-35.588,224.692,227.493
100,-39.504,224.036,227.493
101,-43.408,223.313,227.493
102,-47.298,222.521,227.493
103,-51.175,221.662,227.493
104,-55.035,220.735,227.493
105,-58.879,219.741,227.493
106,-62.705,218.680,227.493
107,-66.512,217.552,227.493
108,-70.299,216.358,227.493
109,-74.064,215.098,227.493
110,-77.807,213.773,227.493
111,-81.526,212.383,227.493
112,-85.220,210.927,227.493
113,-88.888,209.408,227.493
114,-92.530,207.825,227.493
115,-96.142,206.178,227.493
116,-99.726,204.469,227.493
117,-103.279,202.697,227.493
118,-106.801,200.864,227.493
119,-110.291,198.969,227.493
120,-113.746,197.014,227.493
121,-117.167,194.999,227.493
122,-120.553,192.925,227.493
123,-123.901,190.791,227.493
124,-127.212,188.600,227.493
125,-130.484,186.351,227.493
126,-133.717,184.045,227.493
127,-136.908,181.684,227.493
128,-140.058,179.267,227.493
129,-143.166,176.795,227.493
130,-146.229,174.269,227.493
131,-149.249,171.691,227.493
132,-152.222,169.060,227.493
133,-155.150,166.377,227.493
134,-158.030,163.644,227.493
135,-160.861,160.861,227.493
136,-163.644,158.030,227.493
137,-166.377,155.150,227.493
138,-169.060,152.222,227.493
139,-171.691,149.249,227.493
140,-174.269,146.229,227.493
141,-176.795,143.166,227.493
142,-179.267,140.058,227.493
143,-181.684,136.908,227.493
144,-184.045,133.717,227.493
145,-186.351,130.484,227.493
146,-188.600,127.212,227.493
147,-190.791,123.901,227.493
148,-192.925,120.553,227.493
149,-194.999,117.167,227.493
150,-197.014,113.746,227.493
151,-198.969,110.291,227.493
152,-200.864,106.801,227.493
153,-202.697,103.279,227.493
154,-204.469,99.726,227.493
155,-206.178,96.142,227.493
156,-207.825,92.530,227.493
157,-209.408,88.888,227.493
158,-210.927,85.220,227.493
159,-212.383,81.526,227.493
160,-213.773,77.807,227.493
161,-215.098,74.064,227.493
162,-216.358,70.299,227.493
163,-217.552,66.512,227.493
164,-218.680,62.705,227.493
165,-219.741,58.879,227.493
166,-220.735,55.035,227.493
167,-221.662,51.175,227.493
168,-222.521,47.298,227.493
169,-223.313,43.408,227.493
170,-224.036,39.504,227.493
171,-224.692,35.588,227.493
172,-225.279,31.661,227.493
173,-225.797,27.724,227.493
174,-226.246,23.779,227.493
175,-226.627,19.827,227.493
176,-226.938,15.869,227.493
177,-227.181,11.906,227.493
178,-227.354,7.939,227.493
179,-227.458,3.970,227.493
180,-227.493,0.000,227.493
181,-227.458,-3.970,227.493
182,-227.354,-7.939,227.493
183,-227.181,-11.906,227.493
184,-226.938,-15.869,227.493
185,-226.627,-19.827,227.493
186,-226.246,-23.779,227.493
187,-225.797,-27.724,227.493
188,-225.279,-31.661,227.493
189,-224.692,-35.588,227.493
190,-224.036,-39.504,227.493
191,-223.313,-43.408,227.493
192,-222.521,-47.298,227.493
193,-221.662,-51.175,227.493
194,-220.735,-55.035,227.493
195,-219.741,-58.879,227.493
196,-218.680,-62.705,227.493
197,-217.552,-66.512,227.493
198,-216.358,-70.299,227.493
199,-215.098,-74.064,227.493
200,-213.773,-77.807,227.493
201,-212.383,-81.526,227.493
202,-210.927,-85.220,227.493
203,-209.408,-88.888,227.493
204,-207.825,-92.530,227.493
205,-206.178,-96.142,227.493
206,-204.469,-99.726,227.493
207,-202.697,-103.279,227.493
208,-200.864,-106.801,227.493
209,-198.969,-110.291,227.493
210,-197.014,-113.746,227.493
211,-194.999,-117.167,227.493
212,-192.925,-120.553,227.493
213,-190.791,-123.901,227.493
214,-188.600,-127.212,227.493
215,-186.351,-130.484,227.493
216,-184.045,-133.717,227.493
217,-181.684,-136.908,227.493
218,-179.267,-140.058,227.493
219,-176.795,-143.166,227.493
220,-174.269,-146.229,227.493
221,-171.691,-149.249,227.493
222,-169.060,-152.222,227.493
223,-166.377,-155.150,227.493
224,-163.644,-158.030,227.493
225,-160.861,-160.861,227.493
226,-158.030,-163.644,227.493
227,-155.150,-166.377,227.493
228,-152.222,-169.060,227.493
229,-149.249,-171.691,227.493
230,-146.229,-174.269,227.493
231,-143.166,-176.795,227.493
232,-140.058,-179.267,227.493
233,-136.908,-181.684,227.493
234,-133.717,-184.045,227.493
235,-130.484,-186.351,227.493
236,-127.212,-188.600,227.493
237,-123.901,-190.791,227.493
238,-120.553,-192.925,227.493
239,-117.167,-194.999,227.493
240,-113.746,-197.014,227.493
241,-110.291,-198.969,227.493
242,-106.801,-200.864,227.493
243,-103.279,-202.697,227.493
244,-99.726,-204.469,227.493
245,-96.142,-206.178,227.493
246,-92.530,-207.825,227.493
247,-88.888,-209.408,227.493
248,-85.220,-210.927,227.493
249,-81.526,-212.383,227.493
250,-77.807,-213.773,227.493
251,-74.064,-215.098,227.493
252,-70.299,-216.358,227.493
253,-66.512,-217.552,227.493
254,-62.705,-218.680,227.493
255,-58.879,-219.741,227.493
256,-55.035,-220.735,227.493
257,-51.175,-221.662,227.493
258,-47.298,-222.521,227.493
259,-43.408,-223.313,227.493
260,-39.504,-224.036,227.493
261,-35.588,-224.692,227.493
262,-31.661,-225.279,227.493
263,-27.724,-225.797,227.493
264,-23.779,-226.246,227.493
265,-19.827,-226.627,227.493
266,-15.869,-226.938,227.493
267,-11.906,-227.181,227.493
268,-7.939,-227.354,227.493
269,-3.970,-227.458,227.493
270,0.000,-227.493,227.493
271,3.970,-227.458,227.493
272,7.939,-227.354,227.493
273,11.906,-227.181,227.493
274,15.869,-226.938,227.493
275,19.827,-226.627,227.493
276,23.779,-226.246,227.493
277,27.724,-225.797,227.493
278,31.661,-225.279,227.493
279,35.588,-224.692,227.493
280,39.504,-224.036,227.493
281,43.408,-223.313,227.493
282,47.298,-222.521,227.493
283,51.175,-221.662,227.493
284,55.035,-220.735,227.493
285,58.879,-219.741,227.493
286,62.705,-218.680,227.493
287,66.512,-217.552,227.493
288,70.299,-216.358,227.493
289,74.064,-215.098,227.493
290,77.807,-213.773,227.493
291,81.526,-212.383,227.493
292,85.220,-210.927,227.493
293,88.888,-209.408,227.493
294,92.530,-207.825,227.493
295,96.142,-206.178,227.493
296,99.726,-204.469,227.493
297,103.279,-202.697,227.493
298,106.801,-200.864,227.493
299,110.291,-198.969,227.493
300,113.746,-197.014,227.493
301,117.167,-194.999,227.493
302,120.553,-192.925,227.493
303,123.901,-190.791,227.493
304,127.212,-188.600,227.493
305,130.484,-186.351,227.493
306,133.717,-184.045,227.493
307,136.908,-181.684,227.493
308,140.058,-179.267,227.493
309,143.166,-176.795,227.493
310,146.229,-174.269,227.493
311,149.249,-171.691,227.493
312,152.222,-169.060,227.493
313,155.150,-166.377,227.493
314,158.030,-163.644,227.493
315,160.861,-160.861,227.493
316,163.644,-158.030,227.493
317,166.377,-155.150,227.493
318,169.060,-152.222,227.493
319,171.691,-149.249,227.493
320,174.269,-146.229,227.493
321,176.795,-143.166,227.493
322,179.267,-140.058,227.493
323,181.684,-136.908,227.493
324,184.045,-133.717,227.493
325,186.351,-130.484,227.493
326,188.600,-127.212,227.493
327,190.791,-123.901,227.493
328,192.925,-120.553,227.493
329,194.999,-117.167,227.493
330,197.014,-113.746,227.493
331,198.969,-110.291,227.493
332,200.864,-106.801,227.493
333,202.697,-103.279,227.493
334,204.469,-99.726,227.493
335,206.178,-96.142,227.493
336,207.825,-92.530,227.493
337,209.408,-88.888,227.493
338,210.927,-85.220,227.493
339,212.383,-81.526,227.493
340,213.773,-77.807,227.493
341,215.098,-74.064,227.493
342,216.358,-70.299,227.493
343,217.552,-66.512,227.493
344,218.680,-62.705,227.493
345,219.741,-58.879,227.493
346,220.735,-55.035,227.493
347,221.662,-51.175,227.493
348,222.521,-47.298,227.493
349,223.313,-43.408,227.493
350,224.036,-39.504,227.493
351,224.692,-35.588,227.493
352,225.279,-31.661,227.493
353,225.797,-27.724,227.493
354,226.246,-23.779,227.493
355,226.627,-19.827,227.493
356,226.938,-15.869,227.493
357,227.181,-11.906,227.493
358,227.354,-7.939,227.493
359,227.458,-3.970,227.493
